x, Amplitude
0.000000000000000000e+00 0.000000000000000000e+00
6.289474781961547356e-03 6.285329004448193813e-02
1.257894956392309471e-02 1.254580301802960263e-01
1.886842434588464207e-02 1.875666533758371390e-01
2.515789912784618942e-02 2.489335544668916100e-01
3.144737390980773678e-02 3.093160613888688570e-01
3.773684869176928414e-02 3.684753948102498788e-01
4.402632347373083149e-02 4.261776123724352883e-01
5.031579825569237885e-02 4.821945338020476868e-01
5.660527303765392620e-02 5.363046432373823613e-01
6.289474781961547356e-02 5.882939652008050135e-01
6.918422260157702786e-02 6.379569107531118943e-01
7.547369738353856827e-02 6.850970904837808684e-01
8.176317216550010869e-02 7.295280911221883047e-01
8.805264694746166299e-02 7.710742126987246703e-01
9.434212172942321728e-02 8.095711633407439711e-01
1.006315965113847577e-01 8.448667089558177246e-01
1.069210712933462981e-01 8.768212752331534521e-01
1.132105460753078524e-01 9.053084995825966264e-01
1.195000208572694067e-01 9.302157308286042037e-01
1.257894956392309471e-01 9.514444746831766109e-01
1.320789704211924875e-01 9.689107832361495420e-01
1.383684452031540557e-01 9.825455869226277228e-01
1.446579199851155961e-01 9.922949676548136200e-01
1.509473947670771365e-01 9.981203720381462974e-01
1.572368695490386770e-01 9.999987638285974256e-01
1.635263443310002174e-01 9.979227150282432568e-01
1.698158191129617856e-01 9.919004352588769446e-01
1.761052938949233260e-01 9.819557392975066801e-01
1.823947686768848664e-01 9.681279529021188379e-01
1.886842434588464346e-01 9.504717573001114639e-01
1.949737182408079750e-01 9.290569729543627364e-01
2.012631930227695154e-01 9.039682834620161866e-01
2.075526678047310558e-01 8.753049006778130803e-01
2.138421425866925962e-01 8.431801723862226705e-01
2.201316173686541644e-01 8.077211340738067458e-01
2.264210921506157048e-01 7.690680065743169536e-01
2.327105669325772452e-01 7.273736415730488458e-01
2.390000417145388134e-01 6.828029171631890826e-01
2.452895164965003538e-01 6.355320858443841425e-01
2.515789912784618942e-01 5.857480775418396624e-01
2.578684660604234624e-01 5.336477604021225840e-01
2.641579408423849751e-01 4.794371622888103368e-01
2.704474156243465433e-01 4.233306560565345267e-01
2.767368904063081114e-01 3.655501118252190151e-01
2.830263651882696241e-01 3.063240196067837928e-01
2.893158399702311923e-01 2.458865857538505562e-01
2.956053147521927049e-01 1.844768068034929598e-01
3.018947895341542731e-01 1.223375243784573102e-01
3.081842643161158413e-01 5.971446488320989593e-02
3.144737390980773539e-01 -3.144732207735998451e-03
3.207632138800389221e-01 -6.599149362662022622e-02
3.270526886620004348e-01 -1.285772952818680370e-01
3.333421634439620029e-01 -1.906546450330640352e-01
3.396316382259235711e-01 -2.519780613851247408e-01
3.459211130078850838e-01 -3.123050442314886932e-01
3.522105877898466519e-01 -3.713970338075678890e-01
3.585000625718082201e-01 -4.290203540623263034e-01
3.647895373537697328e-01 -4.849471367174872927e-01
3.710790121357313009e-01 -5.389562223602160085e-01
3.773684869176928691e-01 -5.908340350059581025e-01
3.836579616996543818e-01 -6.403754266730258271e-01
3.899474364816159500e-01 -6.873844886291101686e-01
3.962369112635774626e-01 -7.316753261016779586e-01
4.025263860455390308e-01 -7.730727933887174830e-01
4.088158608275005990e-01 -8.114131864628658652e-01
4.151053356094621116e-01 -8.465448903300604178e-01
4.213948103914236798e-01 -8.783289785827683716e-01
4.276842851733851925e-01 -9.066397627768889578e-01
4.339737599553467606e-01 -9.313652894598539733e-01
4.402632347373083288e-01 -9.524077828844514926e-01
4.465527095192698415e-01 -9.696840316576873509e-01
4.528421843012314096e-01 -9.831257177957041238e-01
4.591316590831929778e-01 -9.926796868835202625e-01
4.654211338651544905e-01 -9.983081582712681756e-01
4.717106086471160586e-01 -9.999888744757140513e-01
4.780000834290776268e-01 -9.977151891962614538e-01
4.842895582110391395e-01 -9.914960935973848866e-01
4.905790329930007077e-01 -9.813561807535594594e-01
4.968685077749622203e-01 -9.673355483972903013e-01
5.031579825569237885e-01 -9.494896403548136465e-01
5.094474573388853011e-01 -9.278890272965096830e-01
5.157369321208469248e-01 -9.026191276690342935e-01
5.220264069028084375e-01 -8.737798699127286017e-01
5.283158816847699502e-01 -8.414852973000508385e-01
5.346053564667315738e-01 -8.058631169576689901e-01
5.408948312486930865e-01 -7.670541948555988920e-01
5.471843060306545992e-01 -7.252119987603977691e-01
5.534737808126162228e-01 -6.805019913552524669e-01
5.597632555945777355e-01 -6.331009759268215742e-01
5.660527303765392482e-01 -5.831963972062739199e-01
5.723422051585007608e-01 -5.309856001293212779e-01
5.786316799404623845e-01 -4.766750494464279120e-01
5.849211547224238972e-01 -4.204795132692151771e-01
5.912106295043854098e-01 -3.626212137816681169e-01
5.975001042863470335e-01 -3.033289484746273246e-01
6.037895790683085462e-01 -2.428371853785873391e-01
6.100790538502700588e-01 -1.813851358726524809e-01
6.163685286322316825e-01 -1.192158087361733648e-01
6.226580034141931952e-01 -5.657504918379272635e-02
6.289474781961547079e-01 6.289433316067026374e-03
6.352369529781163315e-01 6.912904459478434738e-02
6.415264277600778442e-01 1.316952888356230644e-01
6.478159025420393569e-01 1.937407512368967688e-01
6.541053773240008695e-01 2.550200764003092146e-01
6.603948521059624932e-01 3.152909385755017779e-01
6.666843268879240059e-01 3.743149999240178993e-01
6.729738016698855185e-01 4.318588530132960734e-01
6.792632764518471422e-01 4.876949438136337633e-01
6.855527512338086549e-01 5.416024715481897456e-01
6.918422260157701675e-01 5.933682618376190376e-01
6.981317007977317912e-01 6.427876096865392519e-01
7.044211755796933039e-01 6.896650889782615090e-01
7.107106503616548165e-01 7.338153252767271040e-01
7.170001251436164402e-01 7.750637288796013991e-01
7.232895999255779529e-01 8.132471852237325161e-01
7.295790747075394655e-01 8.482146999128017395e-01
7.358685494895010892e-01 8.798279958164291203e-01
7.421580242714626019e-01 9.079620598795458131e-01
7.484474990534241146e-01 9.325056374797070502e-01
7.547369738353857382e-01 9.533616723774294144e-01
7.610264486173472509e-01 9.704476905197967351e-01
7.673159233993087636e-01 9.836961261796099976e-01
7.736053981812702762e-01 9.930545891403674830e-01
7.798948729632318999e-01 9.984860718705224070e-01
7.861843477451934126e-01 9.999690958677469599e-01
7.924738225271549252e-01 9.974977965944997749e-01
7.987632973091165489e-01 9.910819466690197199e-01
8.050527720910780616e-01 9.807469172200398155e-01
8.113422468730395742e-01 9.665335775580419231e-01
8.176317216550011979e-01 9.484981335597951757e-01
8.239211964369627106e-01 9.267119054052853633e-01
8.302106712189242232e-01 9.012610455459448833e-01
8.365001460008858469e-01 8.722461980194862186e-01
8.427896207828473596e-01 8.397821004585404037e-01
8.490790955648088723e-01 8.039971303669409819e-01
8.553685703467703849e-01 7.650327974578912116e-01
8.616580451287320086e-01 7.230431840615102468e-01
8.679475199106935213e-01 6.781943358146669265e-01
8.742369946926550339e-01 6.306636050425588058e-01
8.805264694746166576e-01 5.806389494286053887e-01
8.868159442565781703e-01 5.283181887460522974e-01
8.931054190385396829e-01 4.739082225904451273e-01
8.993948938205013066e-01 4.176242122064668938e-01
9.056843686024628193e-01 3.596887296445367976e-01
9.119738433844243319e-01 3.003308776117510903e-01
9.182633181663859556e-01 2.397853834977360932e-01
9.245527929483474683e-01 1.782916711579772828e-01
9.308422677303089809e-01 1.160929141252310531e-01
9.371317425122706046e-01 5.343507399305771205e-02
9.434212172942321173e-01 -9.434072225895224345e-03
9.497106920761936300e-01 -7.226591192058601232e-02
9.560001668581552536e-01 -1.348119800065837592e-01
9.622896416401167663e-01 -1.968249414677054887e-01
9.685791164220782790e-01 -2.580595694288491115e-01
9.748685912040397916e-01 -3.182737148923062698e-01
9.811580659860014153e-01 -3.772292643027698178e-01
9.874475407679629280e-01 -4.346930811543944229e-01
9.937370155499244406e-01 -4.904379279164198246e-01
1.000026490331886064e+00 -5.442433646315787410e-01
1.006315965113847577e+00 -5.958966206338964788e-01
1.012605439895809090e+00 -6.451934359386926054e-01
1.018894914677770602e+00 -6.919388689775445300e-01
1.025184389459732115e+00 -7.359480674841022418e-01
1.031473864241693850e+00 -7.770469994822877258e-01
1.037763339023655362e+00 -8.150731414862618651e-01
1.044052813805616875e+00 -8.498761211906863400e-01
1.050342288587578388e+00 -8.813183121098063788e-01
1.056631763369539900e+00 -9.092753778138874532e-01
1.062921238151501413e+00 -9.336367636108454660e-01
1.069210712933463148e+00 -9.543061337287489510e-01
1.075500187715424660e+00 -9.712017522703760841e-01
1.081789662497386173e+00 -9.842568064333685474e-01
1.088079137279347686e+00 -9.934196707178104546e-01
1.094368612061309198e+00 -9.986541110764564078e-01
1.100658086843270711e+00 -9.999394282002936896e-01
1.106947561625232446e+00 -9.972705393728327206e-01
1.113237036407193958e+00 -9.906579985694319301e-01
1.119526511189155471e+00 -9.801279547221767308e-01
1.125815985971116984e+00 -9.657220483153546864e-01
1.132105460753078496e+00 -9.474972467204302307e-01
1.138394935535040009e+00 -9.255256189216790608e-01
1.144684410317001522e+00 -8.998940505233191667e-01
1.150973885098963256e+00 -8.707039001651274424e-01
1.157263359880924769e+00 -8.380705987052270434e-01
1.163552834662886282e+00 -8.021231927550441787e-01
1.169842309444847794e+00 -7.630038343715285221e-01
1.176131784226809307e+00 -7.208672189245859396e-01
1.182421259008770820e+00 -6.758799733626810191e-01
1.188710733790732554e+00 -6.282199972956424849e-01
1.195000208572694067e+00 -5.780757595003719329e-01
1.201289683354655580e+00 -5.256455526313215110e-01
1.207579158136617092e+00 -4.711367090830181903e-01
1.213868632918578605e+00 -4.147647811054084865e-01
1.220158107700540118e+00 -3.567526884142344645e-01
1.226447582482501630e+00 -2.973298366671745518e-01
1.232737057264463365e+00 -2.367312102916797889e-01
1.239026532046424878e+00 -1.751964432518702264e-01
1.245316006828386390e+00 -1.129688714290735807e-01
1.251605481610347903e+00 -5.029457036336817261e-02
1.257894956392309416e+00 1.257861783873961102e-02
1.264184431174270928e+00 7.540206458239891163e-02
1.270473905956232663e+00 1.379273379726532189e-01
1.276763380738194176e+00 1.999071852248029968e-01
1.283052855520155688e+00 2.610965104120872016e-01
1.289342330302117201e+00 3.212533436841432111e-01
1.295631805084078714e+00 3.801397981235950518e-01
1.301921279866040226e+00 4.375230104569015621e-01
1.308210754648001739e+00 4.931760618994722178e-01
1.314500229429963474e+00 5.468788754936272367e-01
1.320789704211924986e+00 5.984190863909256697e-01
1.327079178993886499e+00 6.475928816373933694e-01
1.333368653775848012e+00 6.942058061407210268e-01
1.339658128557809524e+00 7.380735316323379092e-01
1.345947603339771037e+00 7.790225855834893576e-01
1.352237078121732772e+00 8.168910371929051228e-01
1.358526552903694284e+00 8.515291377333104039e-01
1.364816027685655797e+00 8.827999127246189959e-01
1.371105502467617310e+00 9.105797035920353277e-01
1.377394977249578822e+00 9.347586566671503006e-01
1.383684452031540335e+00 9.552411575982858727e-01
1.389973926813502070e+00 9.719462094522334228e-01
1.396263401595463582e+00 9.848077530122080203e-01
1.402552876377425095e+00 9.937749280054239964e-01
1.408842351159386608e+00 9.988122742272691479e-01
1.415131825941348120e+00 9.998998717667488823e-01
1.421421300723309633e+00 9.970334197786903108e-01
1.427710775505271146e+00 9.902242534911989136e-01
1.434000250287232880e+00 9.794992993811165727e-01
1.440289725069194393e+00 9.649009686947395137e-01
1.446579199851155906e+00 9.464869897348529015e-01
1.452868674633117418e+00 9.243301795773086749e-01
1.459158149415078931e+00 8.985181561198681832e-01
1.465447624197040444e+00 8.691529916020005464e-01
1.471737098979002178e+00 8.363508089657767375e-01
1.478026573760963691e+00 8.002413226540323610e-01
1.484316048542925204e+00 7.609673256616686920e-01
1.490605523324886716e+00 7.186841248685391648e-01
1.496894998106848229e+00 6.735589268868676927e-01
1.503184472888809742e+00 6.257701768518073582e-01
1.509473947670771476e+00 5.755068527698896652e-01
1.515763422452732989e+00 5.229677182158032345e-01
1.522052897234694502e+00 4.683605363326623916e-01
1.528342372016656014e+00 4.119012482439941003e-01
1.534631846798617527e+00 3.538131191263396702e-01
1.540921321580579040e+00 2.943258553192839577e-01
1.547210796362540552e+00 2.336746959642558574e-01
1.553500271144502287e+00 1.720994827641701974e-01
1.559789745926463800e+00 1.098437115425006799e-01
1.566079220708425312e+00 4.715356935230757135e-02
1.572368695490386825e+00 -1.572303905703963112e-02
1.578658170272348338e+00 -7.853747156566701082e-02
1.584947645054309850e+00 -1.410413319249172737e-01
1.591237119836271585e+00 -2.029874520267615501e-01
1.597526594618233098e+00 -2.641308693166053434e-01
1.603816069400194610e+00 -3.242297954843688101e-01
1.610105544182156123e+00 -3.830465726031661022e-01
1.616395018964117636e+00 -4.403486129346182443e-01
1.622684493746079148e+00 -4.959093186843858136e-01
1.628973968528040661e+00 -5.495089780708030114e-01
1.635263443310002396e+00 -6.009356341631232334e-01
1.641552918091963909e+00 -6.499859230536446653e-01
1.647842392873925421e+00 -6.964658780492202217e-01
1.654131867655886934e+00 -7.401916967019425142e-01
1.660421342437848446e+00 -7.809904676459168416e-01
1.666710817219809959e+00 -8.187008543658257365e-01
1.673000292001771694e+00 -8.531737331933928470e-01
1.679289766783733207e+00 -8.842727830087764307e-01
1.685579241565694719e+00 -9.118750243150327561e-01
1.691868716347656232e+00 -9.358713055538113723e-01
1.698158191129617745e+00 -9.561667347392505123e-01
1.704447665911579257e+00 -9.726810547031599086e-01
1.710737140693540770e+00 -9.853489604676158864e-01
1.717026615475502505e+00 -9.941203574899393214e-01
1.723316090257464017e+00 -9.989605597588272490e-01
1.729605565039425530e+00 -9.998504269583005089e-01
1.735895039821387043e+00 -9.967864401570344368e-01
1.742184514603348555e+00 -9.897807157237836773e-01
1.748473989385310068e+00 -9.788609574138623648e-01
1.754763464167271803e+00 -9.640703468161506695e-01
1.761052938949233315e+00 -9.454673725938632645e-01
1.767342413731194828e+00 -9.231255991943133621e-01
1.773631888513156341e+00 -8.971333759423150145e-01
1.779921363295117853e+00 -8.675934876676020258e-01
1.786210838077079366e+00 -8.346227482478197901e-01
1.792500312859041101e+00 -7.983515386744061137e-01
1.798789787641002613e+00 -7.589232914680887898e-01
1.805079262422964126e+00 -7.164939234827852887e-01
1.811368737204925639e+00 -6.712312193409044614e-01
1.817658211986887151e+00 -6.233141679382181444e-01
1.823947686768848664e+00 -5.729322546420210216e-01
1.830237161550810177e+00 -5.202847119815826593e-01
1.836526636332771911e+00 -4.655797317939573410e-01
1.842816111114733424e+00 -4.090336419407488711e-01
1.849105585896694937e+00 -3.508700508513330485e-01
1.855395060678656449e+00 -2.913189632755492919e-01
1.861684535460617962e+00 -2.306158707424417753e-01
1.867974010242579475e+00 -1.690008203218501814e-01
1.874263485024541209e+00 -1.067174653713594823e-01
1.880552959806502722e+00 -4.401210202238171193e-02
1.886842434588464235e+00 1.886730478446402987e-02
1.893131909370425747e+00 8.167210186320413012e-02
1.899421384152387260e+00 1.441539310679563202e-01
1.905710858934348773e+00 2.060657114116911381e-01
1.912000333716310507e+00 2.671626161345204142e-01
1.918289808498272020e+00 3.272030408577712990e-01
1.924579283280233533e+00 3.859495589953288452e-01
1.930868758062195045e+00 4.431698606441235588e-01
1.937158232844156558e+00 4.986376712409894552e-01
1.943447707626118071e+00 5.521336463530687189e-01
1.949737182408079583e+00 6.034462390634223183e-01
1.956026657190041318e+00 6.523725365217903915e-01
1.962316131972002831e+00 6.987190623523672484e-01
1.968605606753964343e+00 7.423025417456071695e-01
1.974895081535925856e+00 7.829506262084614532e-01
1.981184556317887369e+00 8.205025751070862405e-01
1.987474031099848881e+00 8.548098913069250848e-01
1.993763505881810616e+00 8.857369083965288548e-01
2.000052980663772129e+00 9.131613271729830394e-01
2.006342455445733641e+00 9.369746992674368169e-01
2.012631930227695154e+00 9.570828559982699213e-01
2.018921405009656667e+00 9.734062807560021069e-01
2.025210879791618179e+00 9.858804234473954597e-01
2.031500354573579692e+00 9.944559557552774542e-01
2.037789829355541205e+00 9.990989662046813047e-01
2.044079304137502717e+00 9.997910942639262055e-01
2.050368778919464230e+00 9.965296029503369901e-01
2.056658253701426187e+00 9.893273896534934275e-01
2.062947728483387699e+00 9.782129351332089495e-01
2.069237203265349212e+00 9.632301908939130408e-01
2.075526678047310725e+00 9.444384053808292379e-01
2.081816152829272237e+00 9.219118896852254164e-01
2.088105627611233750e+00 8.957397236852554512e-01
2.094395102393195263e+00 8.660254037844402619e-01
2.100684577175156775e+00 8.328864336407749702e-01
2.106974051957118288e+00 7.964538595049303060e-01
2.113263526739079801e+00 7.568717520049951242e-01
2.119553001521041313e+00 7.142966364270241231e-01
2.125842476303002826e+00 6.688968737443424795e-01
2.132131951084964339e+00 6.208519948432463798e-01
2.138421425866926295e+00 5.703519905779009802e-01
2.144710900648887808e+00 5.175965604618775195e-01
2.151000375430849321e+00 4.627943229673007197e-01
2.157289850212810833e+00 4.061619905544737175e-01
2.163579324994772346e+00 3.479235126942846756e-01
2.169868799776733859e+00 2.883091902722255129e-01
2.176158274558695371e+00 2.275547648760856412e-01
2.182447749340656884e+00 1.659004865687161434e-01
2.188737224122618397e+00 1.035901638322415663e-01
2.195026698904579909e+00 4.087019944071331595e-02
2.201316173686541422e+00 -2.201138392622280920e-02
2.207605648468502935e+00 -8.480592447550498736e-02
2.213895123250464891e+00 -1.472651046201410296e-01
2.220184598032426404e+00 -2.091419329375677483e-01
2.226474072814387917e+00 -2.701917208837796291e-01
2.232763547596349429e+00 -3.301730504008347777e-01
2.239053022378310942e+00 -3.888487285913860836e-01
2.245342497160272455e+00 -4.459867256850750805e-01
2.251631971942233967e+00 -5.013610925876055280e-01
2.257921446724195480e+00 -5.547528543841142579e-01
2.264210921506156993e+00 -6.059508762635458234e-01
2.270500396288118505e+00 -6.547526984397331606e-01
2.276789871070080018e+00 -7.009653367675935387e-01
2.283079345852041531e+00 -7.444060458884156350e-01
2.289368820634003043e+00 -7.849030418864016978e-01
2.295658295415965000e+00 -8.222961815988092393e-01
2.301947770197926513e+00 -8.564375958933460042e-01
2.308237244979888025e+00 -8.871922744086043755e-01
2.314526719761849538e+00 -9.144385994451648125e-01
2.320816194543811051e+00 -9.380688268961652199e-01
2.327105669325772563e+00 -9.579895123154885672e-01
2.333395144107734076e+00 -9.741218804387352659e-01
2.339684618889695589e+00 -9.864021366957139714e-01
2.345974093671657101e+00 -9.947817194825849807e-01
2.352263568453618614e+00 -9.992274921960793144e-01
2.358553043235580127e+00 -9.997218742703887218e-01
2.364842518017541639e+00 -9.962629106985547711e-01
2.371131992799503152e+00 -9.888642797634363824e-01
2.377421467581465109e+00 -9.775552389476862558e-01
2.383710942363426621e+00 -9.623805092366334302e-01
2.390000417145388134e+00 -9.434000982715822214e-01
2.396289891927349647e+00 -9.206890630528640207e-01
2.402579366709311159e+00 -8.943372131310280970e-01
2.408868841491272672e+00 -8.644487554598656587e-01
2.415158316273234185e+00 -8.311418823156940805e-01
2.421447791055195697e+00 -7.945483039124460189e-01
2.427737265837157210e+00 -7.548127275608009779e-01
2.434026740619118723e+00 -7.120922854310274275e-01
2.440316215401080235e+00 -6.665559131823762806e-01
2.446605690183041748e+00 -6.183836819162195075e-01
2.452895164965003261e+00 -5.677660860947116861e-01
2.459184639746965217e+00 -5.149032902408131607e-01
2.465474114528926730e+00 -4.600043373986110740e-01
2.471763589310888243e+00 -4.032863224839808303e-01
2.478053064092849755e+00 -3.449735337945928904e-01
